Dynamic Sitebased Spectral
X;Y;-96.698;-96.064;-95.432;-94.800;-94.167;-93.535;-92.903;-92.272;-91.638;-91.007;-90.375;-89.744;-89.112;-88.481;-87.848;-87.216;-86.585;-85.952;-85.321;-84.692;-84.059;-83.428;-82.797;-82.166;-81.533;-80.904;-80.273;-79.640;-79.010;-78.381;-77.749;-77.118;-76.487;-75.857;-75.227;-74.596;-73.966;-73.336;-72.705;-72.075;-71.445;-70.815;-70.185;-69.555;-68.925;-68.295;-67.665;-67.035;-66.405;-65.775;-65.145;-64.518;-63.888;-63.256;-62.629;-61.999;-61.370;-60.740;-60.113;-59.482;-58.854;-58.225;-57.596;-56.967;-56.340;-55.708;-55.081;-54.452;-53.826;-53.194;-52.568;-51.939;-51.310;-50.681;-50.055;-49.426;-48.797;-48.171;-47.542;-46.914;-46.287;-45.659;-45.030;-44.404;-43.776;-43.148;-42.522;-41.893;-41.265;-40.639;-40.013;-39.383;-38.757;-38.131;-37.501;-36.876;-36.250;-35.624;-34.994;-34.369;-33.743;-33.116;-32.490;-31.863;-31.235;-30.610;-29.985;-29.357;-28.732;-28.107;-27.480;-26.853;-26.228;-25.603;-24.976;-24.351;-23.726;-23.099;-22.474;-21.850;-21.221;-20.596;-19.971;-19.345;-18.720;-18.098;-17.473;-16.847;-16.223;-15.598;-14.972;-14.348;-13.723;-13.097;-12.475;-11.851;-11.225;-10.601;-9.977;-9.351;-8.727;-8.103;-7.480;-6.854;-6.232;-5.609;-4.983;-4.359;-3.736;-3.110;-2.489;-1.866;-1.240;-0.617;0.006;0.628;1.253;1.876;2.499;3.122;3.745;4.368;4.993;5.614;6.237;6.862;7.485;8.105;8.730;9.353;9.973;10.596;11.218;11.841;12.463;13.085;13.708;14.330;14.952;15.575;16.192;16.817;17.439;18.059;18.681;19.303;19.925;20.544;21.168;21.788;22.410;23.032;23.653;24.273;24.897;25.516;26.137;26.759;27.380;28.000;28.619;29.242;29.861;30.483;31.104;31.723;32.344;32.965;33.586;34.205;34.826;35.447;36.066;36.684;37.305;37.924;38.542;39.163;39.784;40.402;41.022;41.643;42.261;42.882;43.500;44.118;44.741;45.359;45.977;46.595;47.215;47.835;48.453;49.073;49.691;50.309;50.928;51.548;52.166;52.784;53.401;54.019;54.638;55.256;55.873;56.491;57.110;57.729;58.347;58.966;59.583;60.200;60.820;61.437;62.054;62.673;63.290;63.907;64.523;65.142;65.757;66.372;66.990;67.607;68.224;68.842;69.459;70.075;70.694;71.310;71.927;72.545;73.159;73.776;74.392;75.010;75.626;76.242;76.856;77.472;78.088;78.706;79.322;79.936;80.554;81.169;81.785;82.401;83.016;83.632;84.248;84.863;85.478;86.094;86.707;87.323;87.938;88.553;89.168;89.783;90.399;91.014;91.629;92.242;92.859;93.472;94.086;94.703;95.314;95.929;96.544;97.158;97.771;98.388;99.000;99.615;100.229;100.843;101.456;102.070;102.684;103.297;103.909;104.525;105.137;105.751;106.365;106.979;107.591;108.205;108.819;109.431;110.045;110.656;111.268;111.882;112.496;113.107;113.721;114.334;114.946;115.559;116.173;116.784;117.397;118.008;118.620;119.233;119.844;120.457;121.068;121.681;122.294;122.905;123.516;124.127;124.740;125.350;125.963;126.574;127.184;127.799;128.410;129.020;129.631;130.241;130.851;131.462;132.074;132.686;133.297;133.909;134.519;135.129;135.741;136.349;136.959;137.569;138.181;138.791;139.401;140.013;140.622;141.232;141.842;142.451;143.061;143.672;144.282;144.891;145.503;146.112;146.719;147.329;147.938;148.547;149.156;149.768;150.377;150.986;151.597;152.204;152.811;153.422;154.030;154.639;155.248;155.857;156.465;157.072;157.683;158.291;158.898;159.508;160.117;160.725;161.331;161.940;162.548;163.156;163.764;164.372;164.979;165.589;166.195;166.801;167.411;168.019;168.624;169.234;169.842;170.446;171.056;171.661;172.269;172.878;173.484;174.091;174.695;175.304;175.910;176.517;177.124;177.732;178.337;178.944;179.551;180.156;180.763;181.370;181.975;182.580;183.187;183.794;184.399;185.008;185.612;186.215;186.824;187.428;188.035;188.641;189.246;189.850;190.457;191.061;191.667;192.272;192.878;193.482;194.086;194.692;195.299;195.903;196.509;197.110;197.716;198.322;198.926;199.530;200.136;200.739;201.343;201.947;202.552;203.158;203.762;204.365;204.968;205.572;206.177;206.783;207.384;207.989;208.592;209.195;209.798;210.402;211.005;211.608;212.215;212.818;213.420;214.023;214.626;215.229;215.834;216.436;217.037;217.639;218.244;218.847;219.449;220.051;220.654;221.256;221.861;222.463;223.061;223.665;224.267;224.870;225.472;226.074;226.676;227.278;227.882;228.479;229.081;229.685;230.287;230.889;231.490;232.090;232.691;233.295;233.895;234.496;235.098;235.699;236.300;236.900;237.501;238.102;238.703;239.305;239.904;240.505;241.108;241.707;242.306;242.909;243.508;244.108;244.707;245.308;245.909;246.509;247.108;247.709;248.307;248.910;249.508;250.107;250.709;251.307;251.906;252.506;253.106;253.704;254.303;254.903;255.503;256.101;256.701;257.299;257.899;258.499;259.097;259.694;260.296;260.894;261.492;262.091;262.689;263.289;263.884;264.486;265.083;265.680;266.280;266.877;267.474;268.074;268.671;269.268;269.869;270.464;271.061;271.660;272.260;272.854;273.451;274.052;274.647;275.244;275.843;276.441;277.036;277.635;278.231;278.826;279.426;280.023;280.619;281.213;281.812;282.410;283.004;283.603;284.199;284.795;285.391;285.987;286.583;287.179;287.777;288.373;288.967;289.565;290.161;290.757;291.352;291.948;292.544;293.139;293.735;294.330;294.926;295.521;296.117;296.712;297.307;297.903;298.496;299.093;299.686;300.282;300.877;301.472;302.067;302.662;303.257;303.852;304.446;305.039;305.634;306.227;306.824;307.418;308.011;308.605;309.200;309.792;310.389;310.984;311.574;312.170;312.765;313.357;313.951;314.545;315.137;315.730;316.324;316.918;317.512;318.104;318.698;319.292;319.883;320.477;321.069;321.663;322.256;322.848;323.442;324.035;324.625;325.218;325.812;326.403;326.995;327.590;328.181;328.773;329.368;329.957;330.550;331.141;331.734;332.325;332.916;333.509;334.102;334.691;335.286;335.875;336.466;337.061;337.649;338.242;338.832;339.423;340.016;340.606;341.199;341.787;342.377;342.972;343.560;344.150;344.743;345.333;345.923;346.515;347.105;347.693;348.285;348.877;349.465;350.057;350.647;351.237;351.826;352.416;353.006;353.595;354.187;354.777;355.364;355.956;356.545;357.135;357.724;358.313;358.903;359.490;360.081;360.670;361.259;361.849;362.438;363.027;363.616;364.205;364.792;365.383;365.969;366.558;367.147;367.736;368.324;368.911;369.502;370.088;370.677;371.265;371.854;372.440;373.031;373.619;374.205;374.796;375.382;375.970;376.556;377.146;377.730;378.318;378.906;379.494;380.080;380.670;381.256;381.842;382.432;383.017;383.605;384.193;384.778;385.364;385.952;386.539;387.127;387.710;388.299;388.885;389.472;390.057;390.645;391.230;391.817;392.402;392.989;393.572;394.161;394.746;395.331;395.918;396.505;397.088;397.677;398.262;398.846;399.433;400.018;400.602;401.189;401.773;402.360;402.942;403.531;404.113;404.699;405.284;405.870;406.452;407.040;407.622;408.207;408.793;409.377;409.961;410.547;411.131;411.712;412.298;412.882;413.468;414.050;414.635;415.219;415.801;416.388;416.970;417.553;418.139;418.722;419.304;419.889;420.472;421.056;421.639;422.222;422.805;423.386;423.974;424.555;425.138;425.721;426.304;426.886;427.469;428.052;428.635;429.218;429.800;430.381;430.964;431.546;432.131;432.711;433.296;433.876;434.457;435.041;435.622;436.204;436.788;437.368;437.951;438.531;439.115;439.695;440.275;440.859;441.439;442.021;442.603;443.183;443.765;444.346;444.928;445.508;446.087;446.671;447.251;447.830;448.414;448.993;449.575;450.156;450.733;451.315;451.896;452.475;453.057;453.636;454.219;454.798;455.375;455.958;456.537;457.116;457.699;458.278;458.855;459.438;460.017;460.595;461.176;461.755;462.335;462.914;463.492;464.073;464.651;465.232;465.810;466.389;466.969;467.547;468.126;468.706;469.284;469.862;470.442;471.020;471.598;472.174;472.756;473.334;473.910;474.490;475.068;475.646;476.225;476.803;477.381;477.958;478.538;479.114;479.691;480.271;480.848;481.423;482.003;482.580;483.157;483.735;484.314;484.889;485.466;486.045;486.621;487.200;487.775;488.352;488.928;489.505;490.082;490.659;491.236;491.813;492.389;492.966;493.543;494.117;494.696;495.272;495.847;496.423;497.000;497.576;498.150;498.727;499.305;499.879;500.455;501.030;501.606;502.184;502.758;503.332;503.910;504.484;505.060;505.634;506.211;506.785;507.359;507.935;508.510;509.084;509.662;510.235;510.809;511.386;511.960;512.533;513.109;513.684;514.257;514.831;515.406;515.979;516.554;517.129;517.702;518.276;518.851;519.426;519.999;520.573;521.146;521.719;522.296;522.869;523.442;524.014;524.589;525.162;525.734;526.309;526.881;527.454;528.028;528.603;529.173;529.747;530.320;530.892;531.464;532.040;532.610;533.183;533.757;534.329;534.899;535.475;536.047;536.619;537.190;537.762;538.334;538.906;539.480;540.051;540.623;541.194;541.766;542.338;542.909;543.483;544.052;544.625;545.197;545.766;546.339;546.911;547.480;548.053;548.624;549.195;549.764;550.337;550.906;551.477;552.050;552.619;553.192;553.763;554.334;554.902;555.475;556.044;556.612;557.183;557.754;558.324;558.893;559.467;560.036;560.604;561.176;561.745;562.315;562.885;563.453;564.024;564.592;565.162;565.732;566.300;566.872;567.442;568.010;568.580;569.150;569.717;570.287;570.855;571.425;571.994;572.562;573.129;573.699;574.269;574.836;575.404;575.973;576.542;577.110;577.679;578.246;578.814;579.383;579.952;580.521;581.090;581.657;582.224;582.791;583.360;583.927;584.494;585.063;585.632;586.199;586.767;587.334;587.901;588.469;589.036;589.602;590.169;590.738;591.304;591.870;592.439;593.005;593.571;594.138;594.704;595.268;595.836;596.403;596.969;597.537;598.103;598.669;599.235;599.801;600.367;600.932;601.500;602.066;602.632;603.197;603.763;604.329;604.896;605.462;606.026;606.593;607.159;607.724;608.285;608.853;609.418;609.983;610.549;611.114;611.679;612.244;612.809;613.374;613.941;614.504;615.069;615.630;616.197;616.762;617.325;617.892;618.456;619.019;619.586;620.149;620.713;621.278;621.840;622.405;622.967;623.534;624.096;624.661;625.225;625.789;626.349;626.916;627.478;628.042;628.606;629.170;629.732;630.296;630.858;631.420;631.984;632.548;633.112;633.674;634.238;634.799;635.361;635.925;636.488;637.050;637.614;638.175;638.737;639.300;639.863;640.425;640.986;641.550;642.111;642.672;643.235;643.799;644.360;644.921;645.482;646.045;646.608;647.169;647.728;648.289;648.854;649.414;649.975;650.536;651.097;651.657;652.220;652.783;653.341;653.904;654.464;655.025;655.585;656.146;656.706;657.267;657.829;658.387;658.947;659.512;660.072;660.630;661.192;661.752;662.312;662.872;663.432;663.990;664.552;665.110;665.670;666.229;666.791;667.349;667.909;668.470;669.030;669.587;670.149;670.707;671.266;671.826;672.385;672.944;673.502;674.063;674.620;675.179;675.739;676.298;676.857;677.414;677.973;678.532;679.091;679.648;680.207;680.766;681.325;681.882;682.440;682.999;683.556;684.115;684.673;685.230;685.789;686.347;686.904;687.462;688.021;688.577;689.135;689.694;690.250;690.808;691.363;691.923;692.479;693.035;693.595;694.149;694.707;695.265;695.821;696.377;696.937;697.491;698.049;698.605;699.162;699.718;700.274;700.831;701.387;701.943;702.500;703.056;703.611;704.171;704.724;705.280;705.835;706.392;706.947;707.503;708.060;708.615;709.170;709.727;710.282;710.838;711.393;711.948;712.504;713.059;713.614;714.169;714.724;715.279;715.833;716.386;716.945;717.499;718.052;718.609;719.163;719.718;720.272;720.827;721.379;721.935;722.488;723.044;723.598;724.152;724.707;725.259;725.815;726.367;726.921;727.475;728.029;728.583;729.139;729.691;730.245;730.797;731.352;731.904;732.458;733.012;733.565;734.117;734.672;735.224;735.777;736.331;736.882;737.434;737.989;738.541;739.094;739.645;740.198;740.752;741.303;741.858;742.407;742.960;743.513;744.066;744.617;745.172;745.721;746.272;746.827;747.378;747.930;748.479;749.034;749.585;750.137;750.688;751.238;751.791;752.343;752.894;753.444;753.997;754.547;755.097;755.650;756.200;756.750;757.303;757.853;758.405;758.955;759.505;760.057;760.605;761.159;761.709;762.257;762.809;763.359;763.910;764.458;765.010;765.562;766.109;766.661;767.211;767.760;768.310;768.861;769.409;769.960;770.509;771.057;771.608;772.158;772.707;773.254;773.807;774.354;774.902;775.455;776.002;776.551;777.102;777.649;778.198;778.749;779.295;779.844;780.393;780.942;781.491;782.039;782.588;783.135;783.683;784.234;784.780;785.327;785.879;786.426;786.972;787.519;788.071;788.617;789.164;789.712;790.260;790.808;791.356;791.904;792.450;792.999;793.545;794.093;794.640;795.188;795.734;796.280;796.830;797.376;797.921;798.469;799.017;799.562;800.110;800.656;801.203;801.751;802.296;802.842;803.389;803.936;804.482;805.027;805.574;806.120;806.667;807.214;807.759;808.304;808.851;809.397;809.944;810.489;811.033;811.578;812.123;812.672;813.217;813.762;814.307;814.851;815.396;815.943;816.489;817.032;817.578;818.123;818.667;819.214;819.756;820.303;820.847;821.393;821.936;822.480;823.026;823.568;824.115;824.661;825.203;825.747;826.293;826.835;827.379;827.925;828.467;829.011;829.556;830.100;830.644;831.186;831.732;832.273;832.817;833.362;833.904;834.448;834.991;835.535;836.076;836.621;837.165;837.708;838.250;838.795;839.336;839.879;840.423;840.966;841.507;842.050;842.593;843.134;843.677;844.220;844.763;845.304;845.847;846.390;846.930;847.473;848.016;848.557;849.099;849.642;850.182;850.725;851.268;851.808;852.349;852.891;853.433;853.974;854.516;855.057;855.599;856.141;856.681;857.221;857.766;858.306;858.846;859.388;859.928;860.470;861.010;861.552;862.092;862.632;863.173;863.711;864.251;864.795;865.334;865.874;866.416;866.955;867.495;868.034;868.576;869.115;869.655;870.196;870.734;871.273;871.814;872.354;872.893;873.434;873.973;874.512;875.054;875.593;876.130;876.669;877.210;877.749;878.288;878.827;879.365;879.902;880.443;880.982;881.521;882.061;882.600;883.137;883.675;884.214;884.752;885.291;885.829;886.368;886.904;887.445;887.983;888.519;889.060;889.598;890.134;890.672;891.211;891.749;892.285;892.823;893.361;893.897;894.437;894.975;895.509;896.049;896.586;897.122;897.660;898.198;898.734;899.273;899.809;900.345;900.882;901.420;901.957;902.491;903.030;903.566;904.103;904.638;905.176;905.711;906.250;906.784;907.321;907.858;908.393;908.928;909.465;910.002;910.537;911.072;911.609;912.144;912.679;913.218;913.753;914.286;914.824;915.359;915.892;916.429;916.965;917.500;918.034;918.571;919.104;919.640;920.176;920.709;921.245;921.782;922.314;922.848;923.385;923.919;924.453;924.987;925.523;926.057;926.591;927.126;927.660;928.194;928.729;929.263;929.795;930.331;930.863;931.397;931.933;932.466;933.000;933.532;934.067;934.601;935.133;935.668;936.200;936.733;937.268;937.800;938.333;938.867;939.400;939.931;940.465;941.000;941.531;942.064;942.597;943.130;943.662;944.197;944.728;945.261;945.795;946.326;946.859;947.390;947.925;948.454;948.987;949.519;950.052;950.583;951.117;951.646;952.179;952.711;953.244;953.774;954.308;954.837;955.369;955.900;956.434;956.962;957.495;958.027;958.559;959.087;959.619;960.151;960.680;961.214;961.744;962.274;962.806;963.337;963.865;964.397;964.929;965.457;965.989;966.520;967.050;967.580;968.111;968.641;969.169;969.702;970.232;970.761;971.291;971.820;972.352;972.879;973.412;973.940;974.469;975.000;975.529;976.057;976.590;977.117;977.648;978.175;978.704;979.235;979.762;980.293;980.822;981.349;981.880;982.408;982.937;983.466;983.995;984.523;985.052;985.581;986.109;986.638;987.166;987.695;988.221;988.752;989.278;989.807;990.337;990.863;991.390;991.920;992.448;992.974;993.502;994.031;994.559;995.085;995.613;996.141;996.667;997.197;997.723;998.251;998.778;999.304;999.830;1000.360;1000.886;1001.411;1001.939;1002.469;1002.994;1003.520;1004.047;1004.575;1005.100;1005.628;1006.153;1006.679;1007.208;1007.734;1008.259;1008.786;1009.311;1009.839;1010.366;1010.891;1011.416;1011.941;1012.468;1012.995;1013.518;1014.045;1014.570;1015.095;1015.622;1016.149;1016.674;1017.201;1017.723;1018.248;1018.773;1019.302;1019.826;1020.351;1020.875;1021.400;1021.925;1022.451;1022.975;1023.500;1024.026;1024.551;1025.075;1025.597;1026.124;1026.648;1027.170;1027.696;1028.221;1028.745;1029.271;1029.795;1030.317;1030.843;1031.367;1031.889;1032.413;1032.939;1033.461;1033.984;1034.508;1035.032;1035.556;1036.079;1036.603;1037.125;1037.652;1038.174;1038.698;1039.223;1039.745;1040.268;1040.791;1041.315;1041.836;1042.360;1042.883;1043.404;1043.928;1044.451;1044.974;1045.495;1046.020;1046.541;1047.063;1047.588;1048.109;1048.632;1049.153;1049.674;1050.196;1050.717;1051.240;1051.763;1052.284;1052.807;1053.329;1053.850;1054.373;1054.895;1055.416;1055.937;1056.461;1056.982;1057.502;1058.023;1058.543;1059.065;1059.588;1060.108;1060.628;1061.153;1061.673;1062.193;1062.715;1063.234;1063.754;1064.278;1064.798;1065.318;1065.838;1066.360;1066.880;1067.398;1067.920;1068.440;1068.961;1069.483;1070.003;1070.523;1071.042;1071.562;1072.082;1072.601;1073.123;1073.642;1074.160;1074.682;1075.201;1075.720;1076.242;1076.759;1077.279;1077.800;1078.319;1078.839;1079.356;
0.0;0.000;19.000;39.000;46.000;13.000;62.000;2.000;1.000;49.000;41.000;1.000;26.000;8.000;16.000;-17.000;6.000;-23.000;23.000;27.000;87.000;-22.000;25.000;70.000;49.000;78.000;41.000;90.000;61.000;97.000;69.000;40.000;57.000;51.000;49.000;18.000;81.000;54.000;22.000;61.000;13.000;108.000;74.000;-3.000;73.000;32.000;16.000;68.000;30.000;89.000;79.000;78.000;-13.000;40.000;68.000;32.000;44.000;38.000;68.000;61.000;103.000;18.000;67.000;56.000;62.000;47.000;119.000;35.000;55.000;50.000;69.000;53.000;68.000;45.000;56.000;58.000;26.000;99.000;84.000;30.000;86.000;31.000;87.000;58.000;59.000;71.000;69.000;142.000;67.000;101.000;99.000;64.000;95.000;57.000;15.000;42.000;79.000;81.000;81.000;85.000;103.000;71.000;45.000;67.000;81.000;4.000;99.000;32.000;37.000;75.000;49.000;128.000;97.000;52.000;-12.000;-3.000;15.000;75.000;60.000;82.000;43.000;44.000;107.000;-5.000;54.000;49.000;66.000;70.000;65.000;59.000;74.000;45.000;35.000;79.000;100.000;47.000;71.000;59.000;87.000;17.000;38.000;19.000;46.000;131.000;57.000;13.000;80.000;13.000;53.000;64.000;54.000;-2.000;78.000;35.000;41.000;52.000;35.000;105.000;9.000;56.000;44.000;45.000;62.000;113.000;80.000;56.000;78.000;52.000;241.000;259.000;264.000;329.000;355.000;333.000;120.000;54.000;19.000;66.000;23.000;69.000;53.000;68.000;98.000;58.000;53.000;36.000;58.000;82.000;109.000;57.000;51.000;55.000;131.000;30.000;80.000;58.000;61.000;72.000;52.000;92.000;46.000;33.000;47.000;44.000;105.000;55.000;54.000;87.000;3.000;106.000;14.000;28.000;45.000;57.000;-10.000;90.000;106.000;34.000;47.000;59.000;97.000;64.000;47.000;71.000;33.000;32.000;60.000;53.000;-7.000;68.000;20.000;110.000;10.000;36.000;67.000;58.000;109.000;73.000;7.000;90.000;90.000;110.000;118.000;93.000;56.000;28.000;79.000;100.000;39.000;74.000;80.000;65.000;30.000;125.000;31.000;67.000;86.000;46.000;52.000;-24.000;46.000;-10.000;60.000;40.000;92.000;23.000;108.000;20.000;83.000;9.000;107.000;101.000;45.000;42.000;-44.000;86.000;33.000;65.000;55.000;91.000;42.000;27.000;61.000;39.000;72.000;44.000;55.000;79.000;91.000;25.000;10.000;0.000;11.000;93.000;82.000;23.000;109.000;68.000;112.000;55.000;54.000;89.000;128.000;103.000;128.000;187.000;159.000;130.000;170.000;161.000;197.000;219.000;216.000;252.000;219.000;198.000;315.000;320.000;370.000;303.000;365.000;313.000;309.000;396.000;354.000;322.000;364.000;380.000;398.000;356.000;300.000;336.000;349.000;365.000;288.000;309.000;338.000;300.000;377.000;365.000;347.000;284.000;347.000;440.000;357.000;366.000;393.000;402.000;369.000;364.000;347.000;374.000;360.000;382.000;356.000;384.000;329.000;422.000;387.000;426.000;347.000;388.000;353.000;341.000;448.000;306.000;361.000;298.000;418.000;331.000;332.000;339.000;324.000;347.000;410.000;391.000;384.000;400.000;407.000;350.000;366.000;332.000;377.000;356.000;418.000;379.000;333.000;462.000;370.000;291.000;321.000;342.000;351.000;437.000;398.000;378.000;409.000;406.000;361.000;414.000;386.000;324.000;414.000;412.000;432.000;419.000;391.000;450.000;389.000;462.000;428.000;420.000;428.000;424.000;459.000;443.000;376.000;391.000;432.000;403.000;358.000;419.000;444.000;454.000;443.000;487.000;383.000;501.000;387.000;457.000;409.000;495.000;335.000;342.000;435.000;430.000;464.000;460.000;370.000;362.000;419.000;429.000;401.000;429.000;449.000;403.000;414.000;429.000;487.000;420.000;421.000;441.000;411.000;432.000;392.000;389.000;413.000;474.000;463.000;503.000;443.000;397.000;487.000;474.000;477.000;471.000;398.000;443.000;465.000;479.000;495.000;439.000;427.000;383.000;513.000;480.000;511.000;401.000;414.000;463.000;440.000;402.000;420.000;493.000;453.000;400.000;457.000;473.000;451.000;477.000;408.000;378.000;494.000;499.000;485.000;441.000;479.000;476.000;436.000;449.000;462.000;477.000;387.000;519.000;447.000;411.000;429.000;464.000;484.000;518.000;442.000;460.000;461.000;455.000;491.000;491.000;484.000;447.000;508.000;406.000;535.000;479.000;469.000;554.000;490.000;483.000;520.000;524.000;508.000;565.000;620.000;487.000;495.000;577.000;568.000;643.000;666.000;686.000;546.000;568.000;605.000;626.000;551.000;629.000;601.000;515.000;602.000;568.000;653.000;590.000;585.000;549.000;600.000;567.000;460.000;502.000;470.000;532.000;512.000;470.000;526.000;519.000;493.000;389.000;470.000;398.000;488.000;478.000;488.000;428.000;435.000;418.000;540.000;429.000;476.000;481.000;504.000;380.000;409.000;482.000;434.000;459.000;381.000;507.000;444.000;454.000;516.000;411.000;460.000;468.000;418.000;454.000;444.000;401.000;468.000;500.000;266.000;427.000;470.000;428.000;407.000;407.000;359.000;357.000;379.000;417.000;482.000;422.000;391.000;375.000;423.000;480.000;393.000;456.000;406.000;391.000;406.000;437.000;441.000;447.000;399.000;415.000;442.000;390.000;405.000;459.000;447.000;455.000;476.000;437.000;450.000;447.000;445.000;465.000;472.000;452.000;421.000;477.000;430.000;455.000;469.000;451.000;409.000;508.000;491.000;512.000;508.000;537.000;515.000;545.000;486.000;507.000;535.000;558.000;526.000;542.000;552.000;482.000;489.000;543.000;556.000;532.000;528.000;517.000;581.000;573.000;541.000;543.000;577.000;464.000;549.000;584.000;536.000;483.000;547.000;519.000;524.000;559.000;455.000;539.000;572.000;528.000;514.000;485.000;480.000;452.000;457.000;544.000;545.000;495.000;539.000;526.000;518.000;471.000;468.000;512.000;444.000;530.000;466.000;532.000;459.000;390.000;498.000;442.000;543.000;475.000;517.000;450.000;536.000;493.000;454.000;430.000;426.000;486.000;457.000;377.000;465.000;524.000;460.000;408.000;432.000;456.000;428.000;525.000;473.000;513.000;468.000;439.000;536.000;448.000;459.000;534.000;452.000;531.000;531.000;515.000;532.000;474.000;564.000;571.000;525.000;511.000;504.000;519.000;591.000;527.000;581.000;522.000;572.000;527.000;542.000;630.000;565.000;555.000;495.000;574.000;547.000;570.000;608.000;535.000;532.000;596.000;521.000;596.000;523.000;541.000;543.000;597.000;568.000;492.000;564.000;497.000;547.000;517.000;578.000;528.000;539.000;698.000;626.000;599.000;625.000;676.000;682.000;565.000;545.000;580.000;628.000;726.000;710.000;657.000;648.000;762.000;723.000;834.000;849.000;753.000;796.000;792.000;868.000;804.000;899.000;946.000;956.000;841.000;1033.000;891.000;913.000;943.000;829.000;811.000;754.000;676.000;664.000;592.000;566.000;551.000;480.000;527.000;521.000;501.000;450.000;557.000;572.000;498.000;527.000;543.000;468.000;541.000;596.000;525.000;493.000;615.000;602.000;667.000;669.000;786.000;853.000;925.000;1123.000;1085.000;1247.000;1402.000;1566.000;1521.000;1613.000;1559.000;1565.000;1442.000;1416.000;1269.000;1116.000;1089.000;954.000;904.000;934.000;793.000;824.000;796.000;759.000;742.000;639.000;711.000;584.000;581.000;558.000;561.000;571.000;527.000;554.000;517.000;540.000;573.000;498.000;535.000;477.000;557.000;488.000;458.000;422.000;514.000;483.000;471.000;467.000;490.000;392.000;498.000;460.000;528.000;455.000;460.000;414.000;423.000;471.000;495.000;493.000;445.000;453.000;485.000;494.000;515.000;436.000;445.000;452.000;411.000;399.000;457.000;477.000;443.000;458.000;486.000;462.000;465.000;454.000;415.000;516.000;434.000;353.000;494.000;531.000;433.000;521.000;476.000;484.000;491.000;557.000;437.000;527.000;526.000;419.000;522.000;461.000;446.000;481.000;459.000;468.000;502.000;421.000;486.000;499.000;393.000;436.000;477.000;427.000;465.000;480.000;456.000;446.000;431.000;455.000;558.000;402.000;441.000;443.000;410.000;507.000;358.000;457.000;421.000;452.000;421.000;382.000;398.000;321.000;385.000;412.000;385.000;386.000;442.000;423.000;473.000;405.000;391.000;364.000;381.000;357.000;358.000;411.000;453.000;408.000;343.000;433.000;366.000;394.000;412.000;407.000;418.000;358.000;505.000;455.000;433.000;439.000;459.000;461.000;432.000;385.000;437.000;455.000;466.000;386.000;526.000;500.000;451.000;497.000;481.000;529.000;498.000;471.000;549.000;544.000;618.000;524.000;572.000;616.000;622.000;543.000;669.000;727.000;709.000;764.000;789.000;792.000;917.000;1000.000;1103.000;1132.000;1107.000;1379.000;1474.000;1848.000;2082.000;2742.000;3551.000;4474.000;6011.000;7961.000;10243.000;12705.000;14552.000;16370.000;17252.000;17805.000;16698.000;14439.000;11345.000;8161.000;5949.000;4207.000;3175.000;2659.000;2092.000;1797.000;1538.000;1329.000;1172.000;1101.000;1060.000;944.000;833.000;802.000;801.000;668.000;665.000;665.000;676.000;586.000;619.000;588.000;492.000;679.000;568.000;552.000;536.000;526.000;524.000;548.000;483.000;520.000;488.000;492.000;438.000;472.000;523.000;490.000;406.000;374.000;530.000;359.000;400.000;407.000;466.000;445.000;341.000;405.000;389.000;436.000;397.000;401.000;393.000;333.000;406.000;378.000;370.000;423.000;377.000;413.000;362.000;414.000;410.000;360.000;413.000;407.000;418.000;379.000;371.000;374.000;382.000;471.000;411.000;326.000;369.000;358.000;386.000;407.000;348.000;356.000;312.000;337.000;346.000;337.000;342.000;393.000;410.000;411.000;384.000;409.000;361.000;415.000;406.000;391.000;330.000;370.000;320.000;360.000;351.000;355.000;397.000;400.000;491.000;386.000;435.000;417.000;360.000;280.000;355.000;412.000;339.000;409.000;360.000;344.000;359.000;396.000;390.000;399.000;363.000;341.000;437.000;341.000;323.000;404.000;411.000;407.000;448.000;375.000;395.000;405.000;439.000;364.000;395.000;416.000;488.000;418.000;469.000;386.000;369.000;433.000;349.000;437.000;425.000;440.000;337.000;343.000;391.000;362.000;416.000;370.000;407.000;441.000;367.000;351.000;351.000;433.000;386.000;315.000;411.000;384.000;351.000;327.000;367.000;383.000;452.000;362.000;382.000;424.000;354.000;410.000;375.000;340.000;435.000;365.000;413.000;443.000;341.000;373.000;397.000;397.000;409.000;345.000;323.000;465.000;277.000;340.000;341.000;356.000;449.000;440.000;356.000;445.000;370.000;384.000;374.000;355.000;464.000;421.000;382.000;362.000;408.000;357.000;375.000;413.000;393.000;405.000;407.000;427.000;349.000;392.000;340.000;347.000;394.000;395.000;357.000;383.000;332.000;364.000;353.000;372.000;382.000;373.000;362.000;293.000;365.000;364.000;373.000;353.000;258.000;369.000;299.000;402.000;331.000;387.000;368.000;390.000;330.000;325.000;279.000;377.000;324.000;308.000;329.000;334.000;333.000;340.000;394.000;315.000;350.000;343.000;310.000;398.000;343.000;383.000;317.000;355.000;283.000;362.000;400.000;329.000;367.000;331.000;342.000;314.000;287.000;307.000;311.000;324.000;343.000;301.000;333.000;257.000;319.000;234.000;289.000;314.000;281.000;361.000;395.000;231.000;294.000;348.000;333.000;281.000;347.000;325.000;309.000;263.000;378.000;379.000;270.000;273.000;316.000;271.000;320.000;284.000;321.000;293.000;323.000;291.000;241.000;287.000;281.000;331.000;323.000;240.000;317.000;331.000;246.000;299.000;301.000;261.000;293.000;298.000;269.000;292.000;355.000;251.000;295.000;308.000;365.000;350.000;328.000;288.000;282.000;281.000;296.000;257.000;308.000;295.000;244.000;243.000;272.000;305.000;291.000;292.000;244.000;250.000;304.000;281.000;258.000;354.000;339.000;241.000;271.000;290.000;324.000;285.000;227.000;318.000;358.000;291.000;273.000;313.000;345.000;291.000;315.000;355.000;271.000;313.000;251.000;322.000;344.000;388.000;250.000;304.000;293.000;239.000;317.000;325.000;323.000;281.000;308.000;429.000;328.000;321.000;328.000;282.000;252.000;373.000;307.000;331.000;266.000;294.000;423.000;350.000;263.000;286.000;236.000;337.000;283.000;310.000;305.000;321.000;320.000;281.000;302.000;359.000;350.000;348.000;254.000;320.000;335.000;309.000;374.000;291.000;312.000;310.000;283.000;254.000;365.000;273.000;356.000;340.000;364.000;298.000;425.000;370.000;428.000;267.000;382.000;389.000;307.000;358.000;266.000;356.000;386.000;336.000;322.000;278.000;338.000;286.000;258.000;263.000;388.000;268.000;305.000;314.000;306.000;350.000;306.000;284.000;285.000;298.000;320.000;357.000;341.000;264.000;307.000;383.000;294.000;326.000;307.000;330.000;281.000;348.000;338.000;306.000;354.000;323.000;295.000;259.000;267.000;259.000;307.000;285.000;361.000;358.000;408.000;335.000;287.000;371.000;291.000;352.000;323.000;386.000;324.000;314.000;258.000;337.000;278.000;311.000;339.000;283.000;267.000;357.000;298.000;279.000;335.000;304.000;319.000;269.000;324.000;356.000;306.000;288.000;322.000;273.000;344.000;339.000;332.000;308.000;377.000;349.000;245.000;337.000;281.000;296.000;294.000;319.000;285.000;294.000;259.000;292.000;256.000;365.000;312.000;336.000;318.000;350.000;301.000;353.000;332.000;247.000;408.000;829.000;2053.000;254.000;355.000;328.000;287.000;330.000;315.000;395.000;378.000;310.000;392.000;393.000;324.000;310.000;278.000;407.000;302.000;305.000;278.000;314.000;281.000;285.000;223.000;304.000;348.000;343.000;362.000;330.000;303.000;347.000;382.000;341.000;313.000;269.000;306.000;261.000;299.000;332.000;267.000;312.000;266.000;292.000;276.000;329.000;304.000;241.000;291.000;330.000;322.000;282.000;308.000;336.000;313.000;361.000;335.000;296.000;332.000;299.000;336.000;323.000;348.000;301.000;307.000;319.000;275.000;370.000;244.000;279.000;306.000;253.000;308.000;302.000;301.000;254.000;272.000;354.000;229.000;376.000;315.000;233.000;310.000;276.000;279.000;281.000;318.000;308.000;340.000;282.000;323.000;261.000;219.000;309.000;314.000;277.000;286.000;269.000;293.000;326.000;310.000;322.000;200.000;284.000;287.000;256.000;257.000;263.000;291.000;277.000;379.000;287.000;303.000;301.000;252.000;333.000;216.000;367.000;339.000;297.000;272.000;252.000;286.000;341.000;253.000;317.000;225.000;410.000;228.000;324.000;229.000;279.000;371.000;259.000;258.000;370.000;332.000;255.000;287.000;280.000;257.000;369.000;310.000;355.000;187.000;287.000;303.000;289.000;248.000;358.000;308.000;329.000;310.000;333.000;270.000;257.000;316.000;313.000;311.000;315.000;232.000;331.000;280.000;285.000;307.000;280.000;304.000;282.000;281.000;274.000;307.000;276.000;266.000;343.000;293.000;307.000;265.000;310.000;323.000;343.000;285.000;356.000;265.000;333.000;340.000;271.000;381.000;309.000;286.000;332.000;334.000;297.000;332.000;366.000;290.000;300.000;321.000;435.000;315.000;332.000;381.000;335.000;362.000;377.000;321.000;416.000;389.000;324.000;448.000;441.000;391.000;383.000;447.000;406.000;431.000;470.000;495.000;527.000;446.000;537.000;601.000;535.000;610.000;483.000;630.000;577.000;687.000;589.000;632.000;643.000;615.000;594.000;647.000;588.000;599.000;643.000;603.000;691.000;568.000;526.000;538.000;690.000;574.000;648.000;537.000;554.000;582.000;502.000;590.000;568.000;651.000;547.000;639.000;640.000;610.000;564.000;614.000;569.000;629.000;642.000;592.000;567.000;614.000;581.000;534.000;616.000;637.000;587.000;576.000;621.000;578.000;509.000;602.000;526.000;549.000;619.000;524.000;606.000;672.000;605.000;558.000;623.000;554.000;538.000;664.000;602.000;523.000;625.000;575.000;574.000;617.000;636.000;600.000;641.000;481.000;701.000;645.000;636.000;553.000;593.000;591.000;662.000;583.000;571.000;578.000;568.000;600.000;622.000;505.000;620.000;501.000;568.000;457.000;616.000;544.000;552.000;584.000;546.000;478.000;416.000;497.000;477.000;404.000;532.000;415.000;366.000;394.000;358.000;408.000;445.000;394.000;361.000;329.000;435.000;390.000;339.000;385.000;365.000;376.000;402.000;353.000;287.000;420.000;358.000;336.000;420.000;290.000;434.000;282.000;392.000;294.000;376.000;327.000;333.000;351.000;278.000;363.000;296.000;282.000;338.000;417.000;288.000;336.000;324.000;316.000;334.000;347.000;278.000;349.000;299.000;284.000;267.000;330.000;351.000;282.000;327.000;335.000;297.000;289.000;260.000;314.000;306.000;240.000;221.000;267.000;268.000;253.000;326.000;289.000;244.000;277.000;320.000;242.000;241.000;181.000;311.000;225.000;255.000;331.000;281.000;304.000;233.000;200.000;298.000;267.000;212.000;304.000;275.000;265.000;261.000;258.000;265.000;259.000;284.000;269.000;217.000;261.000;242.000;350.000;203.000;234.000;261.000;337.000;231.000;172.000;281.000;224.000;217.000;246.000;275.000;224.000;181.000;208.000;247.000;277.000;249.000;266.000;216.000;299.000;246.000;259.000;155.000;211.000;191.000;283.000;278.000;160.000;243.000;190.000;221.000;230.000;192.000;272.000;276.000;226.000;259.000;198.000;231.000;188.000;208.000;282.000;130.000;257.000;144.000;243.000;255.000;254.000;246.000;239.000;234.000;257.000;212.000;197.000;235.000;234.000;208.000;263.000;219.000;233.000;240.000;195.000;
29.7;0.000;49.000;53.000;59.000;-17.000;15.000;-19.000;56.000;27.000;49.000;-18.000;43.000;1.000;35.000;-22.000;-1.000;33.000;59.000;-20.000;31.000;52.000;-11.000;88.000;55.000;54.000;-3.000;9.000;3.000;92.000;6.000;-12.000;5.000;53.000;21.000;-11.000;32.000;43.000;-47.000;32.000;25.000;53.000;40.000;43.000;31.000;38.000;56.000;39.000;-3.000;44.000;56.000;33.000;-6.000;-11.000;-19.000;21.000;11.000;20.000;62.000;57.000;44.000;-18.000;16.000;18.000;3.000;-48.000;71.000;1.000;43.000;45.000;32.000;47.000;17.000;15.000;-1.000;-4.000;40.000;58.000;45.000;-17.000;90.000;19.000;4.000;33.000;-10.000;60.000;7.000;80.000;58.000;112.000;63.000;17.000;20.000;-16.000;-22.000;30.000;66.000;94.000;31.000;115.000;58.000;8.000;28.000;28.000;59.000;-5.000;32.000;55.000;42.000;49.000;-5.000;99.000;84.000;103.000;-14.000;47.000;5.000;18.000;30.000;49.000;37.000;-30.000;75.000;-24.000;53.000;34.000;41.000;11.000;40.000;7.000;25.000;65.000;-31.000;41.000;43.000;46.000;56.000;58.000;29.000;-30.000;24.000;-26.000;34.000;94.000;45.000;42.000;29.000;-7.000;37.000;32.000;21.000;-52.000;36.000;27.000;30.000;14.000;-33.000;56.000;-21.000;85.000;70.000;1.000;33.000;59.000;74.000;1.000;66.000;116.000;193.000;248.000;234.000;215.000;380.000;271.000;93.000;43.000;10.000;41.000;57.000;34.000;79.000;27.000;4.000;44.000;14.000;48.000;56.000;59.000;17.000;41.000;32.000;8.000;84.000;24.000;28.000;5.000;35.000;47.000;27.000;69.000;50.000;22.000;-13.000;50.000;99.000;42.000;-28.000;50.000;4.000;45.000;6.000;36.000;40.000;85.000;21.000;35.000;28.000;54.000;68.000;66.000;-17.000;83.000;65.000;51.000;29.000;-45.000;41.000;22.000;36.000;2.000;2.000;9.000;64.000;37.000;52.000;17.000;64.000;7.000;40.000;16.000;92.000;112.000;84.000;99.000;37.000;19.000;40.000;100.000;48.000;37.000;-15.000;11.000;30.000;110.000;16.000;-23.000;60.000;52.000;38.000;27.000;21.000;-14.000;40.000;41.000;44.000;68.000;61.000;49.000;17.000;32.000;-1.000;12.000;97.000;34.000;-52.000;41.000;4.000;19.000;-12.000;23.000;4.000;42.000;12.000;-40.000;25.000;56.000;31.000;57.000;25.000;40.000;-6.000;-14.000;10.000;7.000;90.000;55.000;58.000;88.000;52.000;75.000;105.000;83.000;110.000;95.000;93.000;156.000;128.000;71.000;146.000;141.000;202.000;168.000;195.000;258.000;240.000;240.000;270.000;336.000;287.000;262.000;305.000;411.000;277.000;345.000;364.000;290.000;344.000;364.000;301.000;236.000;364.000;304.000;278.000;373.000;286.000;244.000;306.000;359.000;331.000;292.000;323.000;391.000;335.000;367.000;291.000;377.000;338.000;371.000;327.000;331.000;332.000;317.000;310.000;344.000;345.000;341.000;376.000;360.000;231.000;389.000;341.000;430.000;262.000;348.000;358.000;333.000;325.000;332.000;364.000;353.000;411.000;394.000;384.000;355.000;377.000;366.000;365.000;305.000;391.000;297.000;341.000;280.000;374.000;383.000;388.000;332.000;323.000;415.000;348.000;353.000;391.000;372.000;386.000;342.000;333.000;347.000;409.000;342.000;388.000;398.000;363.000;381.000;311.000;327.000;428.000;355.000;389.000;467.000;353.000;413.000;391.000;359.000;441.000;434.000;443.000;394.000;304.000;331.000;382.000;432.000;341.000;337.000;398.000;456.000;387.000;435.000;412.000;368.000;370.000;334.000;419.000;468.000;322.000;380.000;391.000;485.000;446.000;425.000;364.000;263.000;373.000;353.000;359.000;408.000;391.000;453.000;360.000;405.000;447.000;437.000;433.000;366.000;413.000;358.000;410.000;390.000;384.000;331.000;444.000;451.000;403.000;400.000;398.000;435.000;451.000;432.000;491.000;412.000;472.000;460.000;449.000;462.000;426.000;427.000;472.000;515.000;479.000;416.000;372.000;483.000;453.000;392.000;404.000;407.000;401.000;415.000;447.000;438.000;446.000;375.000;366.000;404.000;373.000;442.000;392.000;438.000;407.000;450.000;462.000;420.000;384.000;418.000;418.000;497.000;404.000;409.000;366.000;483.000;387.000;455.000;426.000;470.000;484.000;390.000;479.000;425.000;465.000;423.000;511.000;472.000;511.000;390.000;466.000;535.000;476.000;438.000;506.000;533.000;449.000;501.000;560.000;524.000;504.000;577.000;541.000;598.000;641.000;613.000;528.000;582.000;589.000;589.000;564.000;601.000;558.000;562.000;577.000;580.000;573.000;635.000;505.000;461.000;569.000;557.000;505.000;491.000;486.000;498.000;438.000;379.000;390.000;481.000;422.000;318.000;428.000;375.000;452.000;462.000;449.000;455.000;410.000;385.000;434.000;434.000;387.000;426.000;458.000;435.000;430.000;472.000;367.000;424.000;446.000;416.000;447.000;430.000;506.000;441.000;410.000;490.000;394.000;417.000;434.000;441.000;443.000;482.000;313.000;369.000;403.000;437.000;373.000;422.000;350.000;382.000;405.000;382.000;402.000;436.000;341.000;368.000;324.000;423.000;440.000;380.000;394.000;339.000;376.000;505.000;388.000;389.000;344.000;418.000;400.000;380.000;411.000;464.000;395.000;374.000;432.000;428.000;446.000;412.000;387.000;394.000;390.000;450.000;402.000;363.000;332.000;465.000;424.000;412.000;484.000;424.000;494.000;446.000;512.000;453.000;509.000;460.000;425.000;414.000;545.000;504.000;479.000;456.000;439.000;509.000;435.000;549.000;399.000;488.000;533.000;463.000;459.000;588.000;518.000;487.000;572.000;455.000;541.000;538.000;501.000;503.000;493.000;476.000;562.000;470.000;459.000;499.000;501.000;414.000;513.000;476.000;413.000;491.000;436.000;502.000;483.000;504.000;500.000;427.000;428.000;552.000;426.000;475.000;415.000;436.000;438.000;482.000;430.000;388.000;536.000;363.000;485.000;414.000;487.000;455.000;414.000;425.000;439.000;360.000;421.000;434.000;439.000;391.000;371.000;529.000;429.000;501.000;375.000;404.000;489.000;439.000;467.000;408.000;491.000;463.000;456.000;426.000;423.000;449.000;541.000;454.000;444.000;551.000;536.000;424.000;503.000;549.000;461.000;516.000;507.000;459.000;528.000;566.000;488.000;463.000;523.000;419.000;512.000;563.000;451.000;541.000;437.000;537.000;437.000;585.000;533.000;552.000;551.000;497.000;502.000;541.000;543.000;572.000;604.000;496.000;505.000;468.000;539.000;561.000;555.000;494.000;518.000;532.000;538.000;589.000;557.000;549.000;619.000;647.000;613.000;642.000;497.000;550.000;560.000;706.000;635.000;695.000;718.000;737.000;695.000;781.000;819.000;652.000;732.000;748.000;807.000;826.000;819.000;887.000;899.000;835.000;952.000;888.000;909.000;864.000;812.000;784.000;766.000;629.000;585.000;550.000;556.000;515.000;396.000;529.000;491.000;470.000;429.000;477.000;509.000;466.000;415.000;533.000;542.000;530.000;506.000;557.000;513.000;608.000;542.000;627.000;627.000;693.000;807.000;871.000;970.000;1051.000;1160.000;1412.000;1513.000;1430.000;1632.000;1526.000;1528.000;1426.000;1323.000;1205.000;1181.000;1016.000;996.000;930.000;811.000;756.000;769.000;776.000;608.000;687.000;691.000;669.000;595.000;514.000;628.000;460.000;462.000;493.000;540.000;568.000;468.000;418.000;492.000;426.000;418.000;503.000;427.000;431.000;458.000;456.000;481.000;484.000;446.000;480.000;373.000;394.000;399.000;367.000;491.000;429.000;462.000;418.000;451.000;406.000;458.000;495.000;431.000;494.000;384.000;485.000;423.000;348.000;487.000;380.000;440.000;379.000;414.000;402.000;422.000;456.000;420.000;468.000;472.000;370.000;436.000;408.000;399.000;503.000;441.000;500.000;469.000;370.000;462.000;449.000;446.000;440.000;521.000;524.000;377.000;491.000;389.000;424.000;436.000;429.000;410.000;470.000;425.000;441.000;378.000;379.000;437.000;393.000;438.000;404.000;403.000;423.000;456.000;485.000;378.000;480.000;420.000;394.000;432.000;428.000;420.000;432.000;341.000;359.000;368.000;351.000;327.000;370.000;340.000;378.000;350.000;301.000;333.000;352.000;354.000;358.000;389.000;360.000;330.000;414.000;339.000;341.000;448.000;433.000;333.000;323.000;367.000;402.000;349.000;437.000;365.000;369.000;376.000;444.000;392.000;406.000;414.000;429.000;426.000;459.000;419.000;405.000;431.000;440.000;416.000;445.000;473.000;442.000;462.000;457.000;505.000;485.000;540.000;524.000;466.000;562.000;468.000;563.000;538.000;547.000;470.000;587.000;709.000;652.000;781.000;720.000;791.000;767.000;920.000;913.000;1055.000;1210.000;1351.000;1522.000;1867.000;2140.000;2738.000;3419.000;4649.000;6126.000;7703.000;10076.000;12512.000;14766.000;16014.000;17120.000;17696.000;16876.000;14733.000;11225.000;8180.000;5736.000;4004.000;3038.000;2584.000;2053.000;1763.000;1350.000;1291.000;1131.000;1027.000;975.000;908.000;825.000;821.000;737.000;700.000;578.000;642.000;564.000;570.000;565.000;584.000;570.000;462.000;591.000;520.000;446.000;470.000;470.000;474.000;502.000;486.000;481.000;400.000;466.000;523.000;415.000;445.000;392.000;387.000;419.000;381.000;384.000;319.000;417.000;443.000;322.000;363.000;367.000;450.000;388.000;332.000;363.000;367.000;371.000;362.000;386.000;380.000;363.000;395.000;377.000;336.000;369.000;346.000;387.000;374.000;378.000;352.000;326.000;337.000;301.000;402.000;454.000;328.000;302.000;391.000;374.000;364.000;328.000;249.000;418.000;355.000;325.000;313.000;387.000;341.000;338.000;328.000;304.000;285.000;380.000;316.000;377.000;298.000;310.000;333.000;269.000;359.000;338.000;312.000;356.000;330.000;324.000;338.000;306.000;394.000;306.000;408.000;266.000;302.000;311.000;370.000;381.000;332.000;312.000;328.000;296.000;307.000;344.000;284.000;377.000;318.000;304.000;376.000;323.000;382.000;346.000;373.000;431.000;408.000;328.000;342.000;333.000;310.000;414.000;339.000;384.000;430.000;335.000;418.000;314.000;329.000;344.000;362.000;330.000;398.000;332.000;370.000;367.000;381.000;401.000;367.000;346.000;315.000;330.000;338.000;290.000;324.000;269.000;388.000;368.000;331.000;287.000;364.000;323.000;298.000;301.000;423.000;341.000;402.000;345.000;346.000;340.000;306.000;366.000;406.000;311.000;364.000;364.000;422.000;327.000;306.000;349.000;334.000;307.000;312.000;282.000;310.000;376.000;346.000;389.000;377.000;350.000;356.000;331.000;353.000;329.000;389.000;348.000;312.000;313.000;307.000;377.000;357.000;358.000;359.000;460.000;325.000;319.000;286.000;310.000;363.000;292.000;336.000;381.000;275.000;294.000;355.000;278.000;305.000;309.000;360.000;242.000;339.000;321.000;268.000;300.000;324.000;280.000;306.000;212.000;352.000;317.000;316.000;339.000;328.000;332.000;274.000;265.000;304.000;373.000;271.000;259.000;271.000;320.000;268.000;330.000;273.000;249.000;326.000;270.000;361.000;355.000;279.000;264.000;366.000;245.000;252.000;244.000;349.000;297.000;255.000;244.000;303.000;286.000;269.000;259.000;280.000;281.000;305.000;264.000;263.000;263.000;218.000;259.000;294.000;262.000;316.000;270.000;247.000;304.000;310.000;318.000;217.000;252.000;312.000;200.000;212.000;246.000;328.000;197.000;276.000;295.000;233.000;278.000;282.000;274.000;318.000;256.000;296.000;199.000;257.000;280.000;290.000;232.000;202.000;258.000;288.000;233.000;222.000;256.000;251.000;243.000;281.000;249.000;272.000;247.000;245.000;189.000;270.000;253.000;297.000;283.000;264.000;210.000;226.000;249.000;256.000;207.000;236.000;303.000;214.000;218.000;219.000;222.000;251.000;245.000;207.000;307.000;310.000;256.000;282.000;308.000;145.000;179.000;284.000;257.000;294.000;210.000;286.000;241.000;208.000;200.000;246.000;276.000;272.000;284.000;310.000;305.000;227.000;202.000;259.000;265.000;321.000;225.000;271.000;260.000;255.000;285.000;201.000;241.000;239.000;282.000;342.000;255.000;185.000;286.000;268.000;261.000;280.000;314.000;317.000;267.000;272.000;319.000;319.000;241.000;270.000;257.000;291.000;312.000;291.000;277.000;207.000;322.000;255.000;314.000;291.000;291.000;279.000;246.000;302.000;313.000;261.000;285.000;290.000;251.000;355.000;225.000;241.000;322.000;282.000;314.000;471.000;4607.000;1398.000;356.000;307.000;349.000;337.000;340.000;284.000;240.000;257.000;269.000;250.000;333.000;303.000;258.000;305.000;293.000;204.000;237.000;247.000;254.000;329.000;260.000;252.000;219.000;266.000;319.000;244.000;275.000;216.000;335.000;325.000;270.000;293.000;331.000;314.000;215.000;324.000;228.000;261.000;246.000;258.000;270.000;261.000;312.000;317.000;263.000;285.000;261.000;230.000;243.000;299.000;336.000;290.000;352.000;210.000;260.000;275.000;315.000;265.000;299.000;273.000;284.000;263.000;212.000;257.000;267.000;333.000;271.000;261.000;233.000;300.000;193.000;276.000;278.000;237.000;325.000;303.000;249.000;355.000;292.000;252.000;245.000;271.000;233.000;265.000;333.000;194.000;270.000;261.000;246.000;258.000;218.000;252.000;268.000;316.000;289.000;230.000;246.000;243.000;189.000;286.000;254.000;222.000;351.000;224.000;302.000;313.000;219.000;251.000;275.000;302.000;269.000;271.000;292.000;226.000;240.000;301.000;259.000;345.000;280.000;282.000;347.000;322.000;288.000;281.000;253.000;317.000;232.000;222.000;259.000;293.000;313.000;281.000;210.000;328.000;297.000;335.000;336.000;295.000;250.000;325.000;300.000;269.000;267.000;274.000;262.000;256.000;271.000;262.000;237.000;241.000;264.000;248.000;345.000;277.000;213.000;196.000;288.000;257.000;262.000;240.000;280.000;276.000;260.000;314.000;284.000;238.000;270.000;225.000;246.000;243.000;264.000;239.000;328.000;283.000;267.000;282.000;199.000;235.000;230.000;287.000;288.000;241.000;311.000;253.000;260.000;324.000;214.000;317.000;297.000;272.000;241.000;277.000;267.000;272.000;252.000;253.000;331.000;212.000;241.000;256.000;225.000;275.000;226.000;265.000;208.000;247.000;291.000;276.000;233.000;255.000;261.000;158.000;257.000;244.000;272.000;251.000;294.000;267.000;207.000;213.000;255.000;250.000;225.000;261.000;210.000;236.000;289.000;229.000;193.000;231.000;238.000;286.000;159.000;301.000;236.000;277.000;184.000;271.000;293.000;224.000;258.000;239.000;219.000;269.000;240.000;207.000;262.000;266.000;242.000;298.000;235.000;283.000;283.000;255.000;241.000;266.000;199.000;249.000;259.000;237.000;250.000;207.000;207.000;232.000;269.000;302.000;273.000;315.000;301.000;266.000;280.000;243.000;264.000;278.000;239.000;224.000;309.000;223.000;248.000;227.000;324.000;299.000;323.000;259.000;213.000;208.000;283.000;275.000;281.000;261.000;209.000;258.000;342.000;213.000;269.000;230.000;264.000;283.000;324.000;239.000;294.000;254.000;254.000;290.000;282.000;293.000;285.000;269.000;391.000;342.000;380.000;345.000;338.000;401.000;356.000;324.000;374.000;366.000;357.000;362.000;436.000;338.000;416.000;403.000;463.000;411.000;509.000;557.000;434.000;519.000;567.000;528.000;546.000;523.000;589.000;548.000;638.000;569.000;566.000;543.000;607.000;517.000;638.000;518.000;633.000;596.000;606.000;500.000;546.000;646.000;555.000;629.000;515.000;573.000;605.000;493.000;543.000;531.000;619.000;549.000;678.000;486.000;536.000;560.000;496.000;550.000;628.000;601.000;534.000;580.000;589.000;576.000;526.000;529.000;615.000;492.000;581.000;564.000;543.000;561.000;494.000;518.000;546.000;568.000;534.000;535.000;621.000;568.000;519.000;532.000;453.000;609.000;574.000;646.000;496.000;585.000;602.000;546.000;577.000;597.000;616.000;536.000;583.000;631.000;549.000;598.000;546.000;600.000;559.000;579.000;511.000;526.000;552.000;591.000;507.000;509.000;523.000;586.000;431.000;498.000;505.000;593.000;546.000;547.000;510.000;489.000;478.000;502.000;416.000;490.000;440.000;438.000;361.000;390.000;415.000;431.000;335.000;423.000;357.000;326.000;423.000;387.000;380.000;305.000;352.000;360.000;383.000;353.000;272.000;303.000;362.000;297.000;331.000;308.000;346.000;322.000;312.000;345.000;254.000;346.000;277.000;294.000;310.000;271.000;294.000;276.000;238.000;273.000;312.000;252.000;301.000;281.000;294.000;264.000;306.000;255.000;311.000;254.000;284.000;221.000;272.000;365.000;298.000;332.000;278.000;288.000;201.000;284.000;217.000;243.000;241.000;199.000;289.000;285.000;258.000;249.000;268.000;269.000;230.000;194.000;285.000;265.000;275.000;301.000;234.000;211.000;309.000;270.000;206.000;205.000;195.000;231.000;291.000;244.000;224.000;229.000;304.000;215.000;246.000;179.000;214.000;241.000;190.000;184.000;274.000;245.000;268.000;177.000;202.000;231.000;221.000;218.000;158.000;216.000;221.000;179.000;185.000;257.000;197.000;148.000;231.000;251.000;232.000;241.000;212.000;213.000;244.000;219.000;240.000;206.000;185.000;173.000;225.000;167.000;131.000;197.000;174.000;224.000;199.000;174.000;232.000;185.000;201.000;263.000;271.000;280.000;142.000;224.000;217.000;161.000;157.000;165.000;197.000;216.000;188.000;194.000;215.000;163.000;242.000;174.000;156.000;143.000;154.000;226.000;240.000;133.000;191.000;158.000;160.000;
21.0;20.978;24.000;-1.000;47.000;-9.000;38.000;5.000;16.000;34.000;36.000;-32.000;40.000;-44.000;-10.000;-47.000;-28.000;-1.000;9.000;-27.000;49.000;24.000;-23.000;43.000;21.000;2.000;-5.000;26.000;-16.000;42.000;30.000;64.000;26.000;13.000;17.000;-30.000;9.000;13.000;-32.000;-22.000;14.000;32.000;31.000;-8.000;11.000;15.000;37.000;0.000;20.000;28.000;29.000;54.000;27.000;-46.000;29.000;14.000;-17.000;21.000;32.000;32.000;46.000;1.000;-4.000;5.000;26.000;-46.000;11.000;51.000;41.000;42.000;25.000;-25.000;26.000;-17.000;47.000;-92.000;-14.000;-12.000;-4.000;-40.000;84.000;2.000;19.000;-16.000;28.000;11.000;-29.000;77.000;11.000;51.000;33.000;-12.000;7.000;-60.000;-26.000;20.000;0.000;56.000;57.000;41.000;32.000;39.000;10.000;26.000;60.000;-13.000;14.000;-22.000;11.000;63.000;-23.000;25.000;24.000;2.000;-19.000;-45.000;-7.000;29.000;-6.000;47.000;41.000;66.000;49.000;-7.000;-16.000;44.000;53.000;20.000;28.000;38.000;43.000;15.000;-55.000;-42.000;58.000;5.000;17.000;16.000;-7.000;-11.000;30.000;-14.000;33.000;16.000;-46.000;9.000;40.000;-1.000;-13.000;46.000;57.000;-25.000;42.000;-12.000;13.000;30.000;-17.000;29.000;-31.000;51.000;26.000;10.000;41.000;42.000;35.000;-30.000;44.000;41.000;175.000;229.000;246.000;285.000;368.000;268.000;131.000;30.000;7.000;43.000;69.000;53.000;-15.000;55.000;-8.000;21.000;12.000;-2.000;66.000;14.000;-19.000;65.000;16.000;47.000;43.000;-39.000;34.000;-18.000;20.000;37.000;63.000;43.000;-20.000;1.000;-51.000;19.000;44.000;32.000;17.000;20.000;-15.000;49.000;0.000;24.000;40.000;15.000;14.000;68.000;4.000;-4.000;-7.000;82.000;10.000;22.000;2.000;37.000;21.000;-39.000;-14.000;42.000;-7.000;-25.000;-19.000;7.000;24.000;42.000;21.000;-27.000;8.000;-28.000;-28.000;38.000;51.000;60.000;60.000;68.000;44.000;14.000;64.000;31.000;-40.000;32.000;10.000;-2.000;-12.000;58.000;15.000;-16.000;15.000;38.000;-5.000;-28.000;-56.000;-51.000;27.000;8.000;51.000;-22.000;77.000;20.000;-30.000;-13.000;9.000;-27.000;55.000;-33.000;8.000;-6.000;-14.000;42.000;-38.000;-20.000;-23.000;43.000;-19.000;-30.000;4.000;-5.000;15.000;52.000;64.000;-17.000;-5.000;-3.000;-4.000;-15.000;54.000;-20.000;2.000;44.000;81.000;33.000;36.000;49.000;56.000;87.000;76.000;90.000;57.000;92.000;125.000;170.000;157.000;141.000;152.000;197.000;199.000;192.000;252.000;267.000;318.000;231.000;300.000;319.000;255.000;332.000;340.000;271.000;289.000;284.000;223.000;265.000;242.000;293.000;285.000;303.000;274.000;222.000;296.000;235.000;290.000;260.000;263.000;297.000;240.000;327.000;289.000;262.000;344.000;310.000;300.000;336.000;269.000;325.000;264.000;333.000;334.000;319.000;274.000;358.000;293.000;375.000;271.000;315.000;246.000;259.000;314.000;325.000;303.000;283.000;233.000;295.000;335.000;278.000;285.000;338.000;313.000;284.000;292.000;293.000;369.000;292.000;296.000;268.000;315.000;318.000;353.000;324.000;253.000;424.000;306.000;301.000;267.000;344.000;291.000;326.000;345.000;351.000;347.000;363.000;397.000;386.000;298.000;371.000;295.000;374.000;358.000;351.000;351.000;336.000;267.000;313.000;379.000;300.000;434.000;323.000;353.000;323.000;329.000;319.000;343.000;363.000;341.000;287.000;348.000;414.000;349.000;418.000;384.000;386.000;344.000;298.000;387.000;372.000;299.000;314.000;327.000;406.000;352.000;334.000;331.000;339.000;271.000;286.000;345.000;281.000;329.000;348.000;382.000;278.000;323.000;356.000;358.000;370.000;340.000;378.000;300.000;371.000;370.000;291.000;369.000;388.000;363.000;382.000;347.000;389.000;378.000;379.000;406.000;358.000;301.000;413.000;421.000;394.000;400.000;395.000;418.000;448.000;487.000;378.000;362.000;419.000;374.000;423.000;396.000;404.000;394.000;360.000;341.000;359.000;440.000;347.000;415.000;315.000;348.000;379.000;386.000;376.000;383.000;373.000;374.000;337.000;429.000;368.000;365.000;452.000;302.000;341.000;358.000;439.000;337.000;460.000;381.000;374.000;394.000;372.000;420.000;346.000;484.000;376.000;357.000;420.000;495.000;431.000;439.000;400.000;413.000;418.000;458.000;481.000;389.000;510.000;458.000;443.000;444.000;491.000;494.000;477.000;608.000;583.000;526.000;511.000;574.000;546.000;548.000;559.000;568.000;480.000;460.000;544.000;569.000;549.000;504.000;474.000;455.000;483.000;437.000;511.000;403.000;468.000;402.000;363.000;417.000;466.000;413.000;331.000;348.000;411.000;412.000;387.000;454.000;388.000;349.000;355.000;428.000;343.000;384.000;304.000;397.000;360.000;332.000;407.000;441.000;375.000;412.000;402.000;500.000;359.000;472.000;383.000;354.000;414.000;369.000;335.000;360.000;362.000;361.000;379.000;284.000;333.000;369.000;353.000;334.000;342.000;369.000;332.000;308.000;310.000;365.000;399.000;252.000;326.000;315.000;390.000;334.000;337.000;403.000;353.000;394.000;368.000;368.000;379.000;377.000;328.000;329.000;382.000;392.000;344.000;333.000;380.000;394.000;436.000;320.000;438.000;364.000;334.000;467.000;372.000;372.000;332.000;390.000;395.000;437.000;345.000;388.000;430.000;478.000;420.000;484.000;427.000;510.000;396.000;372.000;401.000;459.000;466.000;495.000;498.000;443.000;466.000;510.000;480.000;409.000;469.000;461.000;580.000;484.000;492.000;576.000;468.000;476.000;439.000;463.000;461.000;528.000;430.000;458.000;452.000;455.000;448.000;399.000;507.000;457.000;408.000;447.000;459.000;469.000;432.000;403.000;451.000;418.000;424.000;371.000;384.000;463.000;454.000;369.000;482.000;421.000;401.000;355.000;439.000;335.000;390.000;451.000;364.000;416.000;400.000;380.000;412.000;419.000;352.000;366.000;384.000;361.000;416.000;421.000;376.000;322.000;406.000;375.000;361.000;408.000;364.000;393.000;430.000;409.000;389.000;418.000;425.000;412.000;450.000;389.000;374.000;494.000;442.000;414.000;458.000;454.000;415.000;476.000;430.000;456.000;500.000;464.000;419.000;471.000;480.000;468.000;442.000;452.000;520.000;473.000;473.000;474.000;447.000;480.000;472.000;424.000;458.000;561.000;488.000;477.000;469.000;491.000;522.000;442.000;506.000;482.000;456.000;501.000;496.000;537.000;465.000;465.000;445.000;431.000;456.000;440.000;566.000;650.000;515.000;546.000;531.000;512.000;608.000;525.000;538.000;534.000;588.000;590.000;657.000;662.000;676.000;634.000;709.000;667.000;728.000;714.000;673.000;799.000;715.000;718.000;839.000;811.000;692.000;867.000;787.000;819.000;765.000;793.000;731.000;703.000;556.000;555.000;499.000;469.000;458.000;453.000;410.000;464.000;399.000;471.000;462.000;493.000;398.000;412.000;440.000;469.000;439.000;440.000;536.000;512.000;579.000;582.000;537.000;588.000;632.000;740.000;866.000;889.000;926.000;1117.000;1250.000;1430.000;1338.000;1466.000;1449.000;1488.000;1272.000;1175.000;1170.000;1016.000;954.000;812.000;904.000;747.000;748.000;682.000;638.000;581.000;575.000;502.000;606.000;535.000;529.000;530.000;439.000;413.000;461.000;486.000;433.000;445.000;401.000;427.000;452.000;469.000;441.000;459.000;338.000;395.000;423.000;365.000;461.000;445.000;437.000;393.000;358.000;407.000;409.000;399.000;396.000;349.000;335.000;431.000;355.000;412.000;360.000;396.000;389.000;444.000;391.000;416.000;316.000;387.000;320.000;355.000;368.000;378.000;425.000;401.000;433.000;393.000;429.000;429.000;413.000;365.000;423.000;308.000;383.000;355.000;434.000;441.000;398.000;422.000;405.000;380.000;370.000;456.000;421.000;298.000;431.000;414.000;426.000;420.000;415.000;348.000;410.000;374.000;355.000;369.000;428.000;357.000;407.000;411.000;411.000;381.000;387.000;360.000;361.000;325.000;386.000;352.000;398.000;385.000;394.000;397.000;318.000;388.000;297.000;331.000;327.000;301.000;335.000;265.000;324.000;353.000;283.000;310.000;366.000;319.000;368.000;284.000;343.000;286.000;367.000;322.000;295.000;397.000;381.000;292.000;293.000;372.000;310.000;294.000;354.000;377.000;342.000;357.000;453.000;371.000;352.000;404.000;281.000;428.000;335.000;321.000;349.000;433.000;342.000;365.000;427.000;476.000;393.000;387.000;382.000;452.000;415.000;452.000;441.000;507.000;528.000;446.000;576.000;441.000;543.000;496.000;584.000;631.000;631.000;674.000;703.000;769.000;831.000;799.000;951.000;1040.000;1155.000;1379.000;1453.000;1741.000;2215.000;2626.000;3384.000;4572.000;6087.000;7851.000;10276.000;12634.000;14537.000;16007.000;17114.000;17702.000;16884.000;14599.000;11385.000;8049.000;5842.000;4060.000;3198.000;2423.000;2028.000;1756.000;1393.000;1195.000;1163.000;1017.000;945.000;896.000;817.000;745.000;713.000;646.000;637.000;609.000;520.000;493.000;530.000;563.000;531.000;461.000;487.000;459.000;415.000;458.000;499.000;419.000;467.000;435.000;475.000;398.000;341.000;429.000;493.000;346.000;370.000;412.000;354.000;265.000;317.000;342.000;337.000;413.000;355.000;354.000;353.000;375.000;333.000;343.000;332.000;272.000;345.000;284.000;348.000;311.000;289.000;311.000;347.000;316.000;293.000;329.000;287.000;297.000;269.000;280.000;267.000;309.000;285.000;331.000;335.000;255.000;312.000;284.000;279.000;339.000;320.000;243.000;244.000;220.000;285.000;269.000;286.000;333.000;339.000;307.000;311.000;303.000;284.000;262.000;322.000;305.000;271.000;284.000;207.000;256.000;228.000;291.000;302.000;261.000;356.000;290.000;270.000;279.000;225.000;285.000;260.000;249.000;323.000;294.000;253.000;276.000;333.000;314.000;309.000;281.000;327.000;287.000;294.000;280.000;322.000;329.000;274.000;335.000;293.000;262.000;396.000;274.000;319.000;348.000;332.000;251.000;387.000;333.000;365.000;346.000;348.000;331.000;258.000;365.000;280.000;287.000;284.000;360.000;323.000;285.000;313.000;281.000;382.000;367.000;272.000;273.000;261.000;333.000;230.000;323.000;287.000;364.000;370.000;319.000;298.000;336.000;323.000;293.000;374.000;377.000;256.000;312.000;295.000;308.000;354.000;254.000;364.000;331.000;323.000;292.000;325.000;297.000;238.000;260.000;303.000;352.000;240.000;338.000;242.000;256.000;304.000;330.000;298.000;362.000;309.000;308.000;254.000;252.000;323.000;294.000;314.000;368.000;321.000;285.000;295.000;315.000;343.000;272.000;351.000;315.000;245.000;238.000;331.000;304.000;268.000;277.000;282.000;268.000;325.000;304.000;228.000;266.000;295.000;232.000;223.000;304.000;281.000;259.000;274.000;228.000;214.000;291.000;267.000;241.000;255.000;254.000;317.000;316.000;280.000;184.000;279.000;231.000;272.000;231.000;222.000;288.000;242.000;278.000;322.000;232.000;317.000;253.000;189.000;344.000;259.000;293.000;266.000;295.000;263.000;245.000;258.000;272.000;241.000;175.000;251.000;245.000;217.000;270.000;268.000;282.000;227.000;309.000;232.000;233.000;262.000;176.000;228.000;239.000;265.000;226.000;298.000;260.000;184.000;248.000;241.000;208.000;242.000;290.000;267.000;166.000;277.000;225.000;180.000;241.000;252.000;247.000;198.000;223.000;254.000;260.000;172.000;253.000;122.000;182.000;215.000;216.000;155.000;119.000;281.000;221.000;155.000;271.000;231.000;223.000;161.000;210.000;171.000;235.000;265.000;200.000;216.000;262.000;206.000;224.000;228.000;193.000;229.000;211.000;231.000;234.000;179.000;190.000;238.000;151.000;184.000;215.000;218.000;198.000;226.000;193.000;261.000;201.000;181.000;260.000;270.000;129.000;188.000;222.000;309.000;227.000;193.000;244.000;226.000;236.000;207.000;202.000;226.000;253.000;301.000;298.000;157.000;201.000;142.000;292.000;214.000;290.000;171.000;242.000;250.000;156.000;230.000;196.000;259.000;237.000;240.000;279.000;248.000;227.000;193.000;231.000;227.000;331.000;176.000;288.000;156.000;199.000;271.000;264.000;193.000;151.000;216.000;275.000;269.000;203.000;198.000;273.000;218.000;198.000;231.000;265.000;283.000;263.000;158.000;194.000;245.000;277.000;243.000;231.000;256.000;223.000;252.000;247.000;276.000;227.000;302.000;266.000;210.000;263.000;324.000;309.000;273.000;229.000;253.000;253.000;180.000;225.000;228.000;287.000;286.000;233.000;226.000;237.000;218.000;170.000;215.000;240.000;256.000;279.000;181.000;235.000;216.000;231.000;284.000;247.000;235.000;286.000;273.000;267.000;244.000;241.000;196.000;292.000;219.000;283.000;178.000;294.000;177.000;197.000;273.000;213.000;276.000;247.000;213.000;210.000;221.000;214.000;211.000;298.000;259.000;204.000;265.000;225.000;295.000;255.000;283.000;237.000;305.000;236.000;249.000;269.000;219.000;222.000;236.000;223.000;244.000;223.000;170.000;298.000;174.000;230.000;242.000;241.000;258.000;258.000;208.000;266.000;209.000;187.000;279.000;292.000;218.000;230.000;283.000;202.000;248.000;264.000;205.000;213.000;226.000;173.000;201.000;264.000;234.000;229.000;196.000;199.000;161.000;256.000;233.000;272.000;279.000;263.000;263.000;254.000;239.000;212.000;259.000;278.000;257.000;223.000;235.000;238.000;221.000;295.000;218.000;288.000;336.000;284.000;294.000;281.000;286.000;260.000;157.000;262.000;233.000;237.000;250.000;327.000;192.000;230.000;157.000;315.000;246.000;264.000;257.000;297.000;199.000;281.000;299.000;304.000;268.000;196.000;209.000;227.000;239.000;265.000;213.000;217.000;271.000;252.000;251.000;261.000;216.000;159.000;241.000;274.000;240.000;236.000;211.000;250.000;237.000;231.000;226.000;201.000;276.000;169.000;188.000;324.000;256.000;241.000;254.000;257.000;227.000;229.000;153.000;217.000;254.000;183.000;230.000;174.000;261.000;253.000;190.000;243.000;168.000;319.000;240.000;225.000;161.000;200.000;212.000;178.000;219.000;195.000;307.000;167.000;241.000;193.000;229.000;181.000;161.000;211.000;203.000;198.000;165.000;285.000;254.000;242.000;157.000;221.000;215.000;200.000;200.000;151.000;207.000;145.000;317.000;157.000;222.000;268.000;228.000;745.000;565.000;262.000;211.000;176.000;206.000;211.000;253.000;198.000;218.000;239.000;200.000;265.000;228.000;183.000;223.000;194.000;254.000;211.000;207.000;292.000;191.000;195.000;226.000;213.000;152.000;194.000;194.000;252.000;232.000;210.000;206.000;233.000;198.000;251.000;188.000;265.000;276.000;254.000;218.000;157.000;286.000;285.000;215.000;295.000;237.000;241.000;192.000;210.000;219.000;259.000;221.000;260.000;290.000;192.000;245.000;264.000;228.000;247.000;217.000;240.000;208.000;195.000;256.000;290.000;237.000;197.000;155.000;202.000;239.000;213.000;245.000;234.000;263.000;252.000;211.000;249.000;255.000;227.000;229.000;220.000;276.000;337.000;216.000;284.000;281.000;331.000;313.000;259.000;341.000;368.000;274.000;268.000;378.000;286.000;332.000;347.000;367.000;333.000;431.000;370.000;486.000;413.000;410.000;451.000;440.000;450.000;514.000;532.000;530.000;525.000;583.000;572.000;515.000;564.000;506.000;477.000;566.000;538.000;593.000;553.000;529.000;558.000;589.000;516.000;541.000;528.000;506.000;535.000;481.000;549.000;539.000;540.000;495.000;558.000;531.000;556.000;586.000;480.000;503.000;521.000;468.000;576.000;561.000;512.000;579.000;522.000;500.000;520.000;454.000;528.000;511.000;499.000;560.000;471.000;526.000;506.000;516.000;553.000;513.000;563.000;570.000;445.000;591.000;441.000;538.000;512.000;467.000;480.000;542.000;538.000;508.000;528.000;512.000;486.000;581.000;595.000;503.000;574.000;490.000;656.000;537.000;545.000;517.000;509.000;543.000;598.000;461.000;514.000;468.000;539.000;467.000;506.000;481.000;513.000;450.000;464.000;531.000;500.000;484.000;469.000;477.000;470.000;498.000;382.000;373.000;402.000;394.000;321.000;324.000;343.000;447.000;302.000;283.000;337.000;299.000;285.000;315.000;383.000;364.000;273.000;300.000;334.000;307.000;268.000;276.000;315.000;257.000;285.000;245.000;271.000;296.000;265.000;256.000;292.000;252.000;268.000;234.000;313.000;307.000;233.000;287.000;249.000;229.000;254.000;241.000;249.000;316.000;227.000;244.000;199.000;265.000;203.000;210.000;197.000;176.000;195.000;172.000;279.000;276.000;257.000;235.000;227.000;200.000;219.000;137.000;258.000;178.000;215.000;236.000;232.000;251.000;198.000;234.000;244.000;184.000;197.000;193.000;218.000;128.000;198.000;197.000;175.000;309.000;230.000;183.000;185.000;126.000;206.000;253.000;175.000;252.000;223.000;196.000;147.000;151.000;177.000;186.000;129.000;158.000;94.000;179.000;166.000;144.000;168.000;165.000;167.000;265.000;129.000;131.000;178.000;159.000;130.000;96.000;221.000;195.000;81.000;186.000;172.000;167.000;199.000;204.000;159.000;245.000;157.000;220.000;170.000;111.000;153.000;189.000;182.000;134.000;223.000;138.000;163.000;161.000;96.000;198.000;218.000;149.000;202.000;149.000;152.000;136.000;167.000;207.000;111.000;187.000;140.000;157.000;174.000;170.000;190.000;164.000;184.000;156.000;72.000;162.000;127.000;164.000;212.000;131.000;161.000;156.000;180.000;138.000;